date,open,high,low,close,volume
2021-01-04,135.92,137.97,133.68,134.00,315746
2021-01-05,134.13,135.29,133.54,133.70,260524
2021-01-06,134.22,137.97,134.22,137.72,289314
2021-01-07,137.52,140.00,136.50,139.70,192396
2021-01-08,139.57,140.62,137.75,139.07,140578
2021-01-11,139.50,139.87,138.38,138.79,115313
2021-01-12,138.81,139.23,137.09,138.15,199210
2021-01-13,137.95,139.58,136.14,138.58,245041
2021-01-14,138.50,140.71,137.52,139.45,181211
2021-01-15,139.04,141.33,138.37,138.83,149314
2021-01-19,139.58,140.62,137.25,137.26,222324
2021-01-20,137.73,140.75,137.49,140.62,254127
2021-01-21,140.27,141.12,138.01,138.11,208315
2021-01-22,137.86,138.38,137.11,138.19,227833
2021-01-25,138.16,139.92,137.85,139.57,187115
2021-01-26,139.43,140.00,137.08,138.85,125884
2021-01-27,137.53,137.53,133.15,133.25,186869
2021-01-28,134.08,135.80,133.61,135.25,165759
2021-01-29,134.43,135.36,131.82,132.97,377788
2021-02-01,134.13,134.39,131.81,134.09,184722
2021-02-02,135.05,138.12,134.74,136.94,192951
2021-02-03,136.16,137.30,135.38,136.56,134745
2021-02-04,136.12,138.40,135.00,138.00,251134
2021-02-05,139.46,140.73,138.72,140.66,177537
2021-02-08,141.25,142.00,140.53,141.98,171207
2021-02-09,141.96,142.89,141.22,142.17,182995
2021-02-10,143.00,144.10,142.50,143.25,151058
2021-02-11,143.50,144.32,142.06,142.97,195826
2021-02-12,142.38,144.76,142.38,144.63,105250
2021-02-16,144.61,144.72,142.90,143.60,175318
2021-02-17,143.75,144.18,142.44,143.21,208088
2021-02-18,142.62,143.18,140.99,140.99,208657
2021-02-19,138.57,138.57,131.61,132.24,492876
2021-02-22,131.25,131.37,127.50,129.10,347080
2021-02-23,127.82,128.72,126.78,128.28,490743
2021-02-24,128.26,129.04,127.80,128.76,213046
2021-02-25,128.77,130.91,128.77,130.30,378645
2021-02-26,131.06,131.57,129.56,130.07,386457
2021-03-01,130.78,132.00,129.88,130.60,282990
2021-03-02,130.44,130.66,129.47,130.35,367730
2021-03-03,130.37,132.18,129.50,131.05,220359
2021-03-04,130.89,131.90,130.12,130.40,493726
2021-03-05,131.14,134.14,130.41,134.09,204653
2021-03-08,134.83,138.48,134.10,137.71,230559
2021-03-09,138.68,140.67,137.68,137.69,251524
2021-03-10,138.21,140.12,137.94,139.38,150688
2021-03-11,139.19,140.41,138.74,139.38,169130
2021-03-12,140.00,141.24,139.26,140.77,218990
2021-03-15,141.78,143.03,141.01,142.13,356177
2021-03-16,141.71,142.10,139.33,140.50,280669
2021-03-17,139.91,141.74,139.38,141.28,180865
2021-03-18,141.34,142.47,140.94,141.51,174119
2021-03-19,142.06,142.33,139.04,139.31,614976
2021-03-22,138.97,141.86,138.26,141.59,247672
2021-03-23,140.53,142.56,140.16,140.77,330053
2021-03-24,141.16,144.33,141.16,141.84,300817
2021-03-25,141.40,143.23,140.45,142.47,265561
2021-03-26,143.00,144.82,142.19,144.82,286952
2021-03-29,144.24,145.90,143.39,144.77,272170
2021-03-30,144.33,144.41,142.60,143.08,247853
2021-03-31,143.03,143.47,141.23,141.67,408616
2021-04-01,141.99,143.98,141.38,143.87,228248
2021-04-05,144.95,144.95,143.34,144.69,196076
2021-04-06,144.04,145.99,143.32,145.97,206053
2021-04-07,145.28,145.50,143.38,143.59,188018
2021-04-08,143.80,143.96,142.19,143.68,158656
2021-04-09,144.42,145.30,143.28,145.20,151363
2021-04-12,144.68,146.38,144.68,146.21,100771
2021-04-13,146.60,147.01,145.44,146.33,160844
2021-04-14,144.50,146.15,144.50,145.81,185106
2021-04-15,146.92,147.90,146.03,147.20,184816
2021-04-16,149.14,149.59,147.57,148.08,322614
2021-04-19,148.23,149.79,147.75,149.71,203887
2021-04-20,147.00,150.75,146.67,150.42,190327
2021-04-21,150.15,152.36,150.15,151.94,191179
2021-04-22,152.02,152.02,149.94,150.07,278387
2021-04-23,150.29,151.74,149.83,151.45,188140
2021-04-26,151.75,152.18,150.90,150.92,193619
2021-04-27,150.10,151.67,149.48,151.64,214894
2021-04-28,151.43,153.07,151.05,151.12,191963
2021-04-29,151.44,152.15,150.40,150.92,226525
2021-04-30,150.00,151.94,147.90,150.81,365740
2021-05-03,152.16,153.20,151.74,152.46,212914
2021-05-04,152.89,156.14,152.89,155.02,206816
2021-05-05,155.30,155.30,153.39,154.18,186429
2021-05-06,154.13,156.63,153.64,156.52,240595
2021-05-07,155.55,157.93,155.55,157.56,187145
2021-05-10,157.74,158.97,155.39,155.48,226253
2021-05-11,154.55,155.66,153.72,153.99,299711
2021-05-12,153.61,154.55,151.61,151.61,164073
2021-05-13,151.40,155.29,151.34,154.62,308949
2021-05-14,154.97,155.29,153.18,153.54,173978
2021-05-17,153.11,154.09,152.23,153.11,136816
2021-05-18,153.41,154.00,150.86,150.92,172514
2021-05-19,150.00,151.04,148.60,149.54,161446
2021-05-20,149.27,150.61,149.04,149.74,123190
2021-05-21,149.93,150.58,148.88,149.63,134933
2021-05-24,150.47,150.73,148.96,149.26,143001
2021-05-25,149.64,150.12,147.47,147.73,199213
2021-05-26,148.50,149.39,147.17,147.86,113557
2021-05-27,148.62,149.15,146.48,146.77,172581
2021-05-28,147.29,147.50,146.42,147.31,146880
2021-06-01,147.98,148.81,146.61,146.88,173020
2021-06-02,146.85,147.88,145.12,145.66,282830
2021-06-03,145.48,146.12,144.74,145.40,224482
2021-06-04,146.04,146.26,144.78,145.56,151875
2021-06-07,145.53,146.09,142.03,142.52,184818
2021-06-08,142.53,142.91,141.12,142.78,182942
2021-06-09,142.57,143.21,141.64,142.17,174063
2021-06-10,142.39,145.05,142.23,144.99,216128
2021-06-11,145.26,146.25,144.24,145.83,152910
2021-06-14,146.00,146.00,143.07,143.49,223570
2021-06-15,143.54,144.91,143.37,144.33,214218
2021-06-16,144.45,145.19,142.44,142.62,168411
2021-06-17,142.76,143.60,139.97,141.51,157887
2021-06-18,140.75,141.90,139.91,140.10,280352
2021-06-21,140.98,142.20,140.17,141.58,229802
2021-06-22,141.89,142.66,141.16,141.63,207445
2021-06-23,141.39,142.16,140.10,140.17,227600
2021-06-24,140.93,140.93,139.79,140.18,142325
2021-06-25,140.18,141.49,140.11,140.92,635000
2021-06-28,141.08,141.42,139.73,140.71,218570
2021-06-29,140.81,141.97,140.06,140.28,151928
2021-06-30,140.32,141.92,140.29,140.84,186478
2021-07-01,141.11,141.70,140.90,141.12,225540
2021-07-02,141.48,141.94,140.06,140.41,121875
2021-07-06,140.40,140.87,138.64,140.05,273437
2021-07-07,139.82,141.46,139.82,141.02,219856
2021-07-08,139.94,140.60,139.01,139.27,154194
2021-07-09,139.85,141.28,139.76,141.18,229787
2021-07-12,140.82,141.01,140.05,140.42,174250
2021-07-13,140.21,141.21,138.36,138.50,223620
2021-07-14,138.67,139.15,138.01,138.44,179871
2021-07-15,137.75,139.01,137.32,138.56,155460
2021-07-16,139.01,140.35,138.40,139.04,177671
2021-07-19,138.04,138.93,136.38,137.13,293041
2021-07-20,137.30,139.65,137.00,137.02,294000
2021-07-21,137.30,138.01,135.93,136.06,157987
2021-07-22,136.33,136.74,134.66,134.67,203588
2021-07-23,134.98,136.28,134.28,136.24,175187
2021-07-26,136.76,137.13,135.90,136.72,191033
2021-07-27,136.11,138.25,135.39,136.76,150478
2021-07-28,136.52,137.81,136.22,137.65,165089
2021-07-29,138.72,140.01,138.72,139.05,315950
2021-07-30,136.00,139.51,128.18,128.92,842429
2021-08-02,128.44,130.58,127.69,129.91,453619
2021-08-03,129.55,129.74,127.67,128.63,418304
2021-08-04,128.76,129.40,126.32,126.77,294483
2021-08-05,127.44,128.20,126.64,127.50,158039
2021-08-06,128.08,129.46,127.92,128.43,184593
2021-08-09,128.70,130.74,128.62,130.08,297217
2021-08-10,129.31,131.21,128.96,129.20,200446
2021-08-11,130.19,132.32,129.17,131.63,305931
2021-08-12,132.54,133.60,131.91,132.68,247773
2021-08-13,132.89,133.89,132.51,133.05,174251
2021-08-16,132.59,133.17,131.66,132.88,106271
2021-08-17,132.33,133.14,131.60,133.01,213098
2021-08-18,132.28,133.10,132.04,132.05,110842
2021-08-19,131.44,132.95,131.40,132.41,94039
2021-08-20,132.10,133.91,131.93,133.52,118563
2021-08-23,134.17,134.55,132.49,132.96,111239
2021-08-24,132.95,133.72,132.22,132.96,85735
2021-08-25,133.08,134.50,132.94,134.13,115978
2021-08-26,133.60,133.78,132.48,132.66,133592
2021-08-27,133.35,134.95,133.30,134.53,180679
2021-08-30,135.16,136.23,135.00,135.23,122282
2021-08-31,135.56,135.95,134.22,134.80,154055
2021-09-01,135.11,135.50,134.14,135.01,135818
2021-09-02,135.50,136.22,134.23,135.14,165545
2021-09-03,135.28,136.19,134.93,135.15,112691
2021-09-07,134.72,134.72,130.93,131.08,131603
2021-09-08,130.34,131.35,130.34,130.88,325204
2021-09-09,130.41,131.12,128.37,128.63,227704
2021-09-10,128.27,129.30,125.82,125.84,340991
2021-09-13,125.46,126.11,123.76,124.76,286032
2021-09-14,125.13,126.42,124.22,124.58,184072
2021-09-15,123.90,125.42,123.30,124.63,206621
2021-09-16,124.47,125.32,122.04,122.30,176805
2021-09-17,122.20,122.64,120.72,121.23,568376
2021-09-20,119.76,121.88,119.54,121.86,289162
2021-09-21,121.96,122.32,119.83,120.06,240573
2021-09-22,120.38,121.20,119.44,120.28,235024
2021-09-23,120.84,121.66,120.28,121.01,162149
2021-09-24,120.66,121.41,120.27,120.36,186267
2021-09-27,120.18,121.13,119.79,120.33,206565
2021-09-28,120.37,120.87,118.88,120.03,230812
2021-09-29,120.00,121.29,120.00,120.38,237584
2021-09-30,120.79,121.43,119.30,119.35,314861
2021-10-01,119.84,122.31,118.61,121.58,259773
2021-10-04,121.50,122.65,120.99,122.29,241877
2021-10-05,121.88,122.87,120.62,121.66,249236
2021-10-06,121.07,123.24,120.45,123.10,240857
2021-10-07,123.28,126.04,123.23,124.26,252691
2021-10-08,124.59,125.09,123.76,124.51,217866
2021-10-11,124.47,126.20,124.27,124.57,182791
2021-10-12,124.12,125.21,123.85,124.49,99752
2021-10-13,125.19,127.57,124.76,127.39,266429
2021-10-14,127.51,128.36,126.88,128.01,215429
2021-10-15,128.61,129.25,127.71,128.22,193182
2021-10-18,127.64,128.69,126.91,127.82,221111
2021-10-19,128.14,128.55,127.17,127.55,143261
2021-10-20,127.26,128.76,126.93,128.16,179992
2021-10-21,128.04,129.56,127.30,129.07,139686
2021-10-22,128.61,129.79,127.68,127.77,131577
2021-10-25,127.96,128.88,126.71,127.79,216361
2021-10-26,127.59,128.28,126.51,126.89,188493
2021-10-27,126.50,127.20,125.28,125.32,202222
2021-10-28,125.10,126.34,125.10,125.98,218722
2021-10-29,123.42,125.43,119.90,120.78,696439
2021-11-01,119.98,125.67,119.98,125.18,581770
2021-11-02,125.86,128.11,124.50,127.40,275548
2021-11-03,127.49,128.50,126.17,128.40,290007
2021-11-04,128.52,129.78,128.36,128.55,326327
2021-11-05,129.50,131.66,129.13,131.50,335702
2021-11-08,131.95,132.27,129.07,130.64,254995
2021-11-09,130.22,131.47,129.75,130.36,170687
2021-11-10,130.66,131.08,129.17,129.58,146979
2021-11-11,129.77,130.50,128.73,129.83,131765
2021-11-12,130.43,131.62,129.51,131.49,177537
2021-11-15,132.42,133.00,130.80,132.32,190839
2021-11-16,132.26,135.81,132.00,134.24,402912
2021-11-17,134.49,135.20,132.61,134.45,267262
2021-11-18,134.14,134.14,129.51,129.64,258834
2021-11-19,129.67,131.52,129.47,130.15,212760
2021-11-22,130.50,131.49,128.79,128.80,274477
2021-11-23,128.80,130.67,128.50,129.70,155839
2021-11-24,129.34,130.08,127.71,128.18,220375
2021-11-26,126.51,129.09,126.34,126.61,166980
2021-11-29,128.05,128.30,125.50,125.87,228054
2021-11-30,124.69,125.44,119.32,119.59,593838
2021-12-01,120.67,122.43,116.67,116.79,785990
2021-12-02,117.32,120.70,116.94,119.65,578317
2021-12-03,119.64,120.71,117.63,118.80,368281
2021-12-06,120.23,121.22,118.83,120.22,615408
2021-12-07,121.20,121.74,119.77,120.28,377871
2021-12-08,120.60,121.27,119.46,120.82,210139
2021-12-09,120.22,121.01,119.22,119.53,193599
2021-12-10,120.08,120.97,119.49,119.74,168860
2021-12-13,119.47,120.62,118.27,118.61,217934
2021-12-14,118.00,119.30,116.79,116.95,292575
2021-12-15,117.19,119.07,117.19,118.37,309782
2021-12-16,119.24,120.19,118.25,118.69,242642
2021-12-17,118.69,118.75,115.67,115.89,800524
2021-12-20,114.82,115.97,112.37,113.67,291938
2021-12-21,114.23,115.89,113.71,115.39,301775
2021-12-22,115.05,116.28,114.41,115.39,379823
2021-12-23,115.67,116.56,115.12,116.33,223847
2021-12-27,116.64,120.03,116.60,119.89,352150
2021-12-28,120.37,122.10,120.06,121.44,438677
2021-12-29,121.45,123.50,121.45,122.10,953008
2021-12-30,122.50,123.50,121.61,121.88,237166
2021-12-31,121.61,122.88,121.22,122.48,226442
2022-01-03,122.44,123.00,119.29,120.82,234856
2022-01-04,121.00,122.92,119.96,121.38,337335
2022-01-05,121.24,124.14,121.24,123.06,367631
2022-01-06,123.54,124.00,122.01,122.55,231889
2022-01-07,122.72,123.79,121.97,123.68,335119
2022-01-10,122.95,123.89,121.68,122.05,398428
2022-01-11,122.28,122.97,120.73,122.52,135493
2022-01-12,122.32,123.00,120.62,121.30,206649
2022-01-13,121.67,122.33,120.37,121.67,193217
2022-01-14,121.28,121.49,119.87,121.18,178973
2022-01-18,120.61,121.40,118.83,120.37,232533
2022-01-19,120.76,121.90,120.50,121.42,252601
2022-01-20,120.82,122.31,118.81,118.83,297725
2022-01-21,119.22,120.07,115.83,116.38,351834
2022-01-24,115.59,117.25,114.03,117.03,329256
2022-01-25,114.72,116.94,113.10,116.03,469961
2022-01-26,115.78,117.55,114.41,115.19,1542526
2022-01-27,115.78,118.30,112.67,113.65,263932
2022-01-28,113.83,115.10,112.45,115.05,323081
2022-01-31,115.01,117.34,114.23,117.30,486256
2022-02-01,117.09,118.93,116.45,117.48,214033
2022-02-02,116.70,117.02,116.01,116.62,363591
2022-02-03,116.44,117.38,114.91,115.19,167719
2022-02-04,114.68,116.03,113.66,115.26,242710
2022-02-07,115.62,116.03,114.33,114.74,263267
2022-02-08,115.00,116.44,114.74,116.05,204194
2022-02-09,117.08,117.66,116.20,116.55,295864
2022-02-10,115.52,117.25,113.66,114.61,267089
2022-02-11,115.04,116.44,112.87,113.71,230590
2022-02-14,113.71,114.51,112.44,114.10,266626
2022-02-15,114.66,116.13,113.40,114.10,263033
2022-02-16,114.25,115.08,113.10,114.70,271428
2022-02-17,113.96,116.26,113.31,115.61,362421
2022-02-18,116.28,121.52,114.42,118.44,462347
2022-02-22,118.50,120.18,117.32,119.10,437171
2022-02-23,119.74,120.31,117.60,117.69,321074
2022-02-24,116.27,117.34,114.72,116.87,349261
2022-02-25,117.16,121.60,116.82,120.97,260057
2022-02-28,119.47,122.03,119.28,121.88,316349
2022-03-01,121.96,122.94,118.53,119.10,325723
2022-03-02,119.09,120.06,118.00,118.38,435089
2022-03-03,118.88,119.75,117.41,119.33,196105
2022-03-04,118.05,120.39,117.69,120.19,206665
2022-03-07,119.31,120.35,116.45,116.52,337261
2022-03-08,116.96,118.29,110.04,110.19,382823
2022-03-09,111.18,114.38,111.18,113.27,224768
2022-03-10,111.83,113.66,111.44,112.26,223236
2022-03-11,113.30,113.72,112.24,112.30,237053
2022-03-14,112.82,115.91,112.77,114.52,173771
2022-03-15,115.09,116.93,114.09,116.81,199537
2022-03-16,117.72,119.11,114.36,116.99,266775
2022-03-17,117.24,118.51,115.27,118.41,163294
2022-03-18,118.10,118.83,116.27,117.74,286789
2022-03-21,117.73,118.67,116.67,118.66,309051
2022-03-22,119.78,120.46,117.36,117.67,294056
2022-03-23,117.80,118.10,114.04,114.67,256834
2022-03-24,115.00,116.22,114.00,115.85,210144
2022-03-25,116.85,117.26,116.00,117.24,148002
2022-03-28,117.43,117.57,115.01,116.49,167286
2022-03-29,117.51,119.59,117.51,119.32,184696
2022-03-30,119.57,119.57,118.24,118.82,156595
2022-03-31,118.40,119.83,117.47,117.50,211182
2022-04-01,118.15,119.64,117.29,119.02,400825
2022-04-04,118.72,118.72,115.20,118.41,286349
2022-04-05,117.65,119.21,117.59,117.73,225256
2022-04-06,117.26,118.92,116.35,118.34,194314
2022-04-07,117.91,120.59,116.63,120.00,331904
2022-04-08,119.81,122.23,119.81,121.41,305272
2022-04-11,121.13,122.30,118.96,118.96,207964
2022-04-12,119.23,120.19,116.39,117.01,187436
2022-04-13,116.89,118.00,116.89,117.88,120171
2022-04-14,117.42,118.70,116.96,117.40,163341
2022-04-18,116.78,117.54,113.58,114.01,137099
2022-04-19,114.57,117.64,113.51,117.23,221601
2022-04-20,117.98,119.75,117.33,119.50,141190
2022-04-21,120.25,120.35,118.33,118.94,178179
2022-04-22,118.60,118.60,116.43,116.62,179875
2022-04-25,116.50,116.50,112.17,115.40,379644
2022-04-26,114.37,115.35,110.44,110.58,295254
2022-04-27,110.94,112.99,110.57,111.10,231456
2022-04-28,111.18,112.24,109.55,112.10,289153
2022-04-29,112.52,116.45,112.52,114.83,640172
2022-05-02,115.42,116.97,112.07,113.39,456988
2022-05-03,112.99,115.36,112.64,113.83,225358
2022-05-04,113.36,116.78,112.72,116.75,346897
2022-05-05,115.49,116.18,111.87,112.80,179038
2022-05-06,111.69,111.72,109.76,111.23,331810
2022-05-09,110.00,111.10,106.66,107.01,276713
2022-05-10,107.56,108.63,103.94,104.54,411834
2022-05-11,104.39,107.42,103.51,104.06,297836
2022-05-12,103.72,106.66,103.25,106.45,389328
2022-05-13,107.00,108.29,106.76,107.51,226883
2022-05-16,107.29,108.42,106.35,108.33,202521
2022-05-17,110.13,110.39,108.22,108.96,311156
2022-05-18,107.99,108.90,103.57,104.07,325904
2022-05-19,103.39,104.60,102.26,103.49,357006
2022-05-20,104.98,105.30,97.19,99.72,796300
2022-05-23,100.95,104.59,99.67,104.22,545172
2022-05-24,104.50,105.61,102.82,104.95,567448
2022-05-25,103.48,105.27,102.48,104.45,493448
2022-05-26,105.70,106.95,105.28,106.53,188191
2022-05-27,106.96,108.93,106.96,108.89,178016
2022-05-31,108.08,109.43,106.35,107.09,306050
2022-06-01,107.49,107.92,105.63,107.25,313932
2022-06-02,107.60,110.03,106.83,109.83,145425
2022-06-03,108.72,109.76,108.23,108.80,139814
2022-06-06,109.59,110.81,108.33,109.25,207415
2022-06-07,108.64,110.34,108.40,110.18,132946
2022-06-08,108.96,109.39,107.26,107.71,157655
2022-06-09,106.77,107.70,105.80,105.83,193753
2022-06-10,103.58,105.89,103.13,105.20,266773
2022-06-13,102.87,103.23,101.05,102.01,252091
2022-06-14,101.61,102.28,98.39,99.52,227948
2022-06-15,100.30,101.24,98.54,100.37,283340
2022-06-16,98.89,98.89,94.03,94.77,620352
2022-06-17,94.49,98.46,94.48,97.50,458524
2022-06-21,97.98,98.70,97.09,97.19,236117
2022-06-22,96.37,98.84,96.24,98.46,228179
2022-06-23,98.62,99.32,97.17,98.93,152130
2022-06-24,100.05,102.65,99.67,102.62,327255
2022-06-27,102.62,104.15,101.99,103.57,185180
2022-06-28,104.22,104.37,101.98,102.70,280199
2022-06-29,102.48,103.89,101.34,103.39,220930
2022-06-30,102.33,103.50,101.37,103.21,205874
2022-07-01,103.34,104.67,102.16,104.49,262328
2022-07-05,103.34,103.34,100.97,102.92,230164
2022-07-06,103.53,103.55,101.51,102.64,286394
2022-07-07,102.45,103.30,101.85,103.11,221222
2022-07-08,102.73,103.03,100.00,100.01,208051
2022-07-11,99.81,100.12,98.47,99.55,186923
2022-07-12,99.47,101.85,99.22,100.51,284288
2022-07-13,99.73,101.31,99.51,100.67,202511
2022-07-14,99.58,99.91,98.34,99.30,199805
2022-07-15,100.81,100.81,99.21,100.01,195284
2022-07-18,100.57,100.95,97.70,98.10,179934
2022-07-19,98.55,101.09,98.55,101.03,635394
2022-07-20,100.67,102.48,100.66,101.82,458852
2022-07-21,101.91,103.59,101.58,103.48,138850
2022-07-22,103.61,103.98,102.33,103.60,214586
2022-07-25,103.72,104.51,102.91,103.92,267351
2022-07-26,103.11,103.88,101.88,103.83,262182
2022-07-27,104.24,106.54,103.64,106.03,229187
2022-07-28,106.08,107.82,105.15,107.82,249802
2022-07-29,107.17,109.49,106.39,107.76,424421
2022-08-01,106.30,108.65,105.61,108.20,276995
2022-08-02,107.86,108.04,105.83,106.59,209714
2022-08-03,107.33,108.82,106.44,107.64,260719
2022-08-04,107.20,107.22,105.86,106.44,292585
2022-08-05,105.67,106.67,105.09,105.65,174609
2022-08-08,106.13,108.00,106.01,107.27,219293
2022-08-09,107.76,108.00,106.49,107.27,249223
2022-08-10,109.23,110.74,108.05,109.77,152928
2022-08-11,110.64,111.29,109.55,109.63,171052
2022-08-12,110.52,111.15,110.14,111.08,201254
2022-08-15,110.68,112.42,110.68,111.91,146459
2022-08-16,111.16,112.26,110.71,112.07,187650
2022-08-17,111.00,111.47,110.05,111.03,173063
2022-08-18,110.94,111.14,109.97,111.03,197318
2022-08-19,111.17,111.26,109.55,110.16,253376
2022-08-22,109.17,109.31,107.75,107.92,178259
2022-08-23,107.88,108.44,106.01,106.89,177978
2022-08-24,107.37,108.06,106.72,107.45,182976
2022-08-25,107.54,108.97,107.54,108.97,132946
2022-08-26,109.55,109.55,104.17,104.41,152002
2022-08-29,103.97,104.47,102.79,104.00,146849
2022-08-30,104.44,104.67,102.72,104.05,148892
2022-08-31,104.38,104.76,102.75,102.81,180329
2022-09-01,102.36,102.87,101.33,102.62,212243
2022-09-02,103.34,104.18,100.72,101.43,205950
2022-09-06,101.26,101.88,99.81,100.33,159334
2022-09-07,100.64,103.63,100.62,103.24,164217
2022-09-08,102.26,105.02,102.13,104.89,137922
2022-09-09,105.68,106.82,104.68,106.41,197127
2022-09-12,107.18,108.27,106.74,107.11,154450
2022-09-13,105.16,105.75,103.98,104.02,271706
2022-09-14,103.81,104.31,102.45,103.58,250694
2022-09-15,103.25,105.40,103.22,105.20,423013
2022-09-16,104.33,104.33,101.40,102.64,579386
2022-09-19,101.85,104.55,101.84,104.53,194369
2022-09-20,103.45,103.45,100.69,101.18,157490
2022-09-21,101.79,102.28,99.63,99.67,173491
2022-09-22,99.14,99.14,97.27,98.12,199227
2022-09-23,96.93,98.31,96.93,98.08,274902
2022-09-26,97.50,98.45,96.43,97.41,363989
2022-09-27,97.99,98.80,95.23,96.06,238588
2022-09-28,96.75,98.50,96.05,98.24,237012
2022-09-29,97.22,97.26,96.27,96.77,206398
2022-09-30,96.12,97.76,94.87,95.03,471485
2022-10-03,96.46,98.02,95.66,97.44,274207
2022-10-04,99.09,99.83,98.51,99.23,262850
2022-10-05,98.09,99.48,97.03,98.18,201289
2022-10-06,97.66,98.20,96.32,97.74,202122
2022-10-07,96.93,96.93,93.60,93.98,118995
2022-10-10,94.39,95.47,93.91,94.37,177259
2022-10-11,93.80,95.65,93.30,94.74,369763
2022-10-12,94.76,94.76,93.27,93.37,147367
2022-10-13,91.07,95.03,90.23,94.56,236982
2022-10-14,95.40,95.92,94.11,95.08,319273
2022-10-17,96.02,97.36,96.02,97.32,344926
2022-10-18,99.25,99.98,98.10,99.28,281332
2022-10-19,98.71,99.21,97.59,98.21,359450
2022-10-20,98.08,98.70,95.43,96.07,185551
2022-10-21,95.56,97.92,94.53,97.52,176398
2022-10-24,97.90,98.80,97.27,97.89,158470
2022-10-25,96.47,99.43,95.97,99.21,292477
2022-10-26,99.85,101.05,98.96,99.09,271850
2022-10-27,99.11,100.64,98.87,99.09,216658
2022-10-28,101.95,104.11,99.22,101.13,445333
2022-10-31,99.96,100.60,99.10,99.15,372894
2022-11-01,99.60,99.60,96.88,97.22,301254
2022-11-02,97.19,97.75,94.57,94.76,268420
2022-11-03,94.28,95.02,92.55,94.71,278303
2022-11-04,96.44,98.78,96.23,98.77,209127
2022-11-07,99.19,100.52,97.98,100.49,180746
2022-11-08,101.00,101.76,100.13,100.35,153120
2022-11-09,100.23,100.88,98.55,99.12,165300
2022-11-10,102.83,103.25,101.04,102.33,265971
2022-11-11,102.84,105.08,101.46,104.25,292552
2022-11-14,103.61,105.27,103.61,104.40,238446
2022-11-15,105.83,107.01,104.28,104.69,272476
2022-11-16,104.86,105.89,104.69,104.92,139311
2022-11-17,103.71,105.07,103.71,104.61,162690
2022-11-18,106.11,106.93,104.61,106.04,213199
2022-11-21,106.10,106.70,104.93,105.14,193315
2022-11-22,105.24,106.66,105.24,106.00,284010
2022-11-23,105.99,106.78,105.58,106.19,202079
2022-11-25,106.55,106.55,105.56,105.91,114719
2022-11-28,105.04,105.49,103.24,103.50,208494
2022-11-29,103.00,104.10,102.93,103.31,181438
2022-11-30,102.89,106.18,101.50,106.14,297906
2022-12-01,106.78,107.78,106.50,107.09,156570
2022-12-02,106.26,108.55,106.10,108.05,167366
2022-12-05,106.86,106.93,105.68,106.70,153805
2022-12-06,106.55,107.08,105.37,107.00,247750
2022-12-07,106.73,108.16,106.20,106.30,152844
2022-12-08,106.45,107.94,106.45,107.93,190764
2022-12-09,107.83,108.98,107.65,108.06,316746
2022-12-12,108.46,108.78,107.49,108.08,209108
2022-12-13,110.38,111.11,107.58,108.21,328373
2022-12-14,108.44,110.28,107.23,108.24,302454
2022-12-15,107.70,108.55,107.24,107.65,229997
2022-12-16,107.11,108.26,106.39,107.44,540619
2022-12-19,107.32,108.36,105.78,106.26,269761
2022-12-20,106.43,108.13,106.27,107.12,193278
2022-12-21,107.98,110.64,107.57,110.64,388504
2022-12-22,109.50,110.80,107.46,108.56,213770
2022-12-23,109.14,110.20,108.35,110.01,161517
2022-12-27,109.90,111.02,109.63,110.87,101728
2022-12-28,111.06,111.91,109.01,109.17,162674
2022-12-29,109.92,111.17,109.38,110.79,128745
2022-12-30,110.50,110.74,109.02,109.98,172340
2023-01-03,110.58,111.07,109.45,110.26,239234
2023-01-04,111.26,112.21,110.31,111.23,217226
2023-01-05,110.64,113.03,109.12,112.12,310027
2023-01-06,113.38,114.40,112.74,114.06,181525
2023-01-09,114.63,115.68,113.28,113.33,161842
2023-01-10,113.19,114.34,112.96,113.43,162998
2023-01-11,113.58,114.43,113.45,113.46,141308
2023-01-12,113.69,113.78,112.40,113.50,179058
2023-01-13,113.21,114.31,113.21,113.97,177702
2023-01-17,114.18,114.53,112.83,114.06,204526
2023-01-18,114.49,114.60,111.92,111.97,118896
2023-01-19,111.59,112.41,110.33,111.99,177398
2023-01-20,112.46,113.29,111.69,113.29,180755
2023-01-23,113.20,113.73,112.46,113.36,165456
2023-01-24,113.03,113.14,111.76,112.84,172566
2023-01-25,111.84,112.51,110.49,112.07,181163
2023-01-26,112.51,112.89,111.82,112.79,139024
2023-01-27,112.51,112.94,111.86,112.73,204294
2023-01-30,111.71,113.33,111.46,113.25,200229
2023-01-31,113.83,116.32,113.31,115.64,630904
2023-02-01,114.45,118.06,114.39,117.09,190891
2023-02-02,117.09,118.34,116.58,117.30,271605
2023-02-03,116.59,116.59,115.21,115.42,284051
2023-02-06,114.56,115.50,113.44,113.44,180382
2023-02-07,112.67,112.83,110.71,112.19,189116
2023-02-08,111.72,112.16,110.55,110.56,138779
2023-02-09,111.48,111.81,109.24,109.25,180195
2023-02-10,109.00,109.22,107.89,109.21,217891
2023-02-13,109.40,110.54,109.25,109.80,184949
2023-02-14,109.80,111.20,109.66,109.76,122473
2023-02-15,108.82,110.40,108.57,110.39,155197
2023-02-16,108.72,111.53,108.18,110.69,372175
2023-02-17,115.00,121.28,114.02,116.69,590720
2023-02-21,116.50,116.50,113.11,115.08,463855
2023-02-22,114.61,116.00,114.43,114.72,257660
2023-02-23,114.81,115.56,113.08,114.56,196443
2023-02-24,113.80,115.04,112.99,114.77,215098
2023-02-27,115.84,117.25,115.51,116.69,215322
2023-02-28,116.65,118.11,116.59,116.72,261479
2023-03-01,116.18,117.61,116.18,117.46,194731
2023-03-02,117.42,119.00,117.23,118.58,205047
2023-03-03,118.97,120.25,117.85,120.25,225357
2023-03-06,120.13,120.19,116.58,116.83,265875
2023-03-07,116.71,117.34,116.22,116.67,247066
2023-03-08,116.41,116.70,115.17,115.33,281690
2023-03-09,115.96,116.41,114.53,114.57,189712
2023-03-10,114.64,114.64,112.28,112.56,201355
2023-03-13,111.45,113.11,111.45,111.97,245480
2023-03-14,113.87,115.26,113.49,115.08,261457
2023-03-15,113.46,113.75,110.17,111.38,256158
2023-03-16,110.22,113.28,109.95,112.68,209153
2023-03-17,112.92,112.92,109.95,110.76,393789
2023-03-20,111.80,113.47,111.80,112.78,146437
2023-03-21,114.13,114.22,112.47,113.02,141240
2023-03-22,112.80,114.22,112.14,112.25,176728
2023-03-23,112.15,113.44,110.81,111.72,156888
2023-03-24,111.02,112.99,110.02,112.97,148787
2023-03-27,113.46,114.84,113.46,113.98,170089
2023-03-28,113.77,115.12,113.14,115.02,189823
2023-03-29,115.69,115.94,115.16,115.87,138685
2023-03-30,116.28,116.77,115.05,115.95,148020
2023-03-31,116.52,118.27,116.52,118.19,206327
2023-04-03,117.93,118.81,117.64,118.65,151094
2023-04-04,118.50,118.50,116.78,117.67,183073
2023-04-05,117.74,119.20,117.23,119.08,249720
2023-04-06,119.34,119.34,117.93,119.06,159279
2023-04-10,118.38,119.22,117.97,119.10,174578
2023-04-11,119.20,119.99,118.83,119.05,121846
2023-04-12,119.33,119.67,118.19,118.39,134313
2023-04-13,118.35,120.00,117.89,119.78,110672
2023-04-14,119.18,120.06,118.31,119.20,233578
2023-04-17,119.50,119.81,118.53,119.81,122358
2023-04-18,119.73,119.73,118.05,118.59,261691
2023-04-19,118.37,119.43,118.06,118.71,252930
2023-04-20,119.00,119.80,118.52,119.03,296826
2023-04-21,119.32,121.07,118.80,120.59,361462
2023-04-24,120.86,121.42,119.74,120.40,229624
2023-04-25,119.43,119.95,117.88,118.07,167516
2023-04-26,117.01,117.58,115.61,115.75,247164
2023-04-27,115.75,116.58,114.63,116.57,361944
2023-04-28,116.51,119.56,116.51,118.51,586715
2023-05-01,119.41,122.50,119.41,121.64,283090
2023-05-02,120.74,120.88,115.73,120.48,359217
2023-05-03,120.47,121.01,119.74,119.90,294338
2023-05-04,119.94,120.15,118.39,118.80,192534
2023-05-05,118.99,121.88,118.99,121.70,171147
2023-05-08,121.86,122.34,120.66,121.50,200362
2023-05-09,120.87,121.03,119.69,120.58,185633
2023-05-10,121.09,121.57,118.50,119.62,227190
2023-05-11,119.48,119.83,118.96,119.28,203949
2023-05-12,119.68,120.87,119.34,120.79,168376
2023-05-15,120.59,121.07,120.03,120.58,148324
2023-05-16,120.58,120.58,118.20,118.32,180808
2023-05-17,118.82,119.04,117.46,118.97,168597
2023-05-18,118.17,119.05,117.78,118.99,94002
2023-05-19,119.88,120.27,118.60,119.09,156874
2023-05-22,118.67,119.52,117.89,118.13,229606
2023-05-23,117.40,118.45,116.91,117.18,155384
2023-05-24,117.19,117.19,115.03,115.12,297833
2023-05-25,114.29,115.28,113.44,113.54,196776
2023-05-26,112.99,114.49,112.94,114.16,210183
2023-05-30,114.21,114.72,113.01,113.36,136076
2023-05-31,113.44,113.56,111.69,112.49,360767
2023-06-01,112.82,113.52,112.04,112.94,170690
2023-06-02,114.01,114.75,113.66,114.16,353036
2023-06-05,113.80,114.23,112.88,113.06,244822
2023-06-06,113.04,114.66,113.04,114.32,266852
2023-06-07,114.36,115.70,114.06,115.41,264132
2023-06-08,115.56,115.99,114.79,115.20,270471
2023-06-09,115.06,115.57,114.39,114.81,295007
2023-06-12,114.68,115.59,114.30,115.39,352968
2023-06-13,115.71,116.39,114.76,115.21,340628
2023-06-14,115.61,115.96,114.35,115.16,225220
2023-06-15,115.00,116.40,114.94,116.05,362582
2023-06-16,115.65,117.21,115.36,117.15,975338
2023-06-20,116.88,116.95,115.71,115.71,297013
2023-06-21,115.14,115.25,113.42,113.62,317906
2023-06-22,113.95,114.06,112.35,114.05,266218
2023-06-23,112.90,113.73,112.07,112.83,366032
2023-06-26,113.06,114.37,113.06,113.61,142333
2023-06-27,113.83,114.82,113.23,114.72,218253
2023-06-28,114.81,114.81,112.48,113.52,204800
2023-06-29,113.43,115.36,112.55,114.78,225865
2023-06-30,115.22,116.28,114.84,115.86,279940
2023-07-03,115.41,117.02,115.41,116.54,85660
2023-07-05,115.62,115.62,112.76,112.94,384164
2023-07-06,112.25,112.98,111.62,112.47,277687
2023-07-07,112.65,115.33,112.58,113.79,333416
2023-07-10,113.31,115.30,113.01,114.47,247988
2023-07-11,114.31,115.56,113.37,115.51,226717
2023-07-12,116.58,117.55,115.77,116.87,199445
2023-07-13,116.85,117.37,116.56,117.01,190322
2023-07-14,117.69,118.84,116.70,118.35,271606
2023-07-17,118.40,119.54,117.16,119.26,234228
2023-07-18,119.01,120.37,118.70,119.08,189137
2023-07-19,118.75,119.41,118.31,119.11,247195
2023-07-20,119.78,120.22,118.86,119.33,175805
2023-07-21,119.65,120.05,118.87,119.84,184341
2023-07-24,120.02,120.49,118.71,119.73,163377
2023-07-25,119.68,121.12,119.30,120.56,250661
2023-07-26,120.16,120.40,118.82,119.95,306926
2023-07-27,120.06,120.78,118.74,119.14,407776
2023-07-28,122.49,126.99,121.88,123.78,513037
2023-07-31,123.52,123.93,120.83,121.46,746502
2023-08-01,121.24,122.50,120.75,122.44,365307
2023-08-02,121.44,122.33,119.98,122.24,329178
2023-08-03,121.52,122.73,120.72,120.81,195935
2023-08-04,120.62,122.13,120.48,120.64,116530
2023-08-07,120.73,121.66,120.51,121.29,140267
2023-08-08,120.08,121.40,119.71,121.12,270087
2023-08-09,121.12,123.39,120.52,121.83,287454
2023-08-10,121.80,123.56,121.80,122.23,216042
2023-08-11,121.51,123.22,121.51,122.61,226544
2023-08-14,122.03,122.99,121.58,122.99,145679
2023-08-15,122.63,122.92,121.98,122.09,248980
2023-08-16,121.73,123.16,121.49,121.54,291140
2023-08-17,121.96,122.66,121.62,121.64,186612
2023-08-18,121.38,123.42,121.38,123.29,443095
2023-08-21,123.15,124.46,123.06,123.78,358766
2023-08-22,123.87,125.71,122.76,122.95,429600
2023-08-23,123.06,123.56,122.31,123.39,305025
2023-08-24,123.49,125.46,122.59,125.11,278430
2023-08-25,125.57,127.67,124.98,127.54,492953
2023-08-28,127.63,129.58,127.63,129.41,331923
2023-08-29,129.80,131.96,129.40,131.82,472394
2023-08-30,132.37,133.26,131.70,132.89,298864
2023-08-31,133.28,133.73,132.24,132.56,305773
2023-09-01,133.10,133.79,132.52,132.55,251989
2023-09-05,131.68,131.98,127.36,127.57,325303
2023-09-06,127.79,128.01,126.19,126.41,291122
2023-09-07,126.29,127.17,125.14,125.36,328552
2023-09-08,125.51,126.67,125.12,125.31,238788
2023-09-11,126.99,127.93,126.41,127.01,333524
2023-09-12,126.11,127.29,125.42,126.53,258007
2023-09-13,125.78,126.58,125.11,125.37,279312
2023-09-14,126.01,127.30,126.01,126.76,217859
2023-09-15,126.49,127.19,125.17,125.93,589390
2023-09-18,126.36,126.36,124.92,125.64,175188
2023-09-19,125.69,125.69,124.06,125.31,218739
2023-09-20,125.84,126.10,124.56,124.63,206240
2023-09-21,124.33,124.35,122.19,122.22,335704
2023-09-22,122.33,122.90,122.11,122.68,341156
2023-09-25,121.99,124.13,121.47,124.04,258777
2023-09-26,123.53,124.22,123.23,123.60,547004
2023-09-27,124.04,124.45,122.87,123.52,362372
2023-09-28,123.86,125.64,123.26,125.47,219290
2023-09-29,126.49,126.83,124.79,125.04,330916
2023-10-02,124.53,125.48,123.98,125.05,244110
2023-10-03,124.02,125.31,122.49,122.87,236345
2023-10-04,123.55,124.66,122.33,124.23,208157
2023-10-05,123.96,124.93,122.80,123.75,466718
2023-10-06,123.61,126.69,123.39,126.41,491688
2023-10-09,125.82,127.22,125.69,126.94,275718
2023-10-10,127.24,128.61,126.51,126.54,322013
2023-10-11,127.53,127.70,126.64,127.53,212866
2023-10-12,127.22,127.40,125.06,125.42,189279
2023-10-13,126.00,126.67,125.40,125.97,324917
2023-10-16,127.36,127.43,126.17,126.71,275211
2023-10-17,126.01,128.34,126.01,127.48,314395
2023-10-18,126.87,127.67,126.28,126.78,287338
2023-10-19,126.08,127.47,125.39,125.73,443939
2023-10-20,125.93,126.48,121.93,122.22,446518
2023-10-23,121.72,123.16,121.21,121.50,379047
2023-10-24,122.13,123.77,121.72,123.34,312070
2023-10-25,122.43,123.78,121.89,122.37,431281
2023-10-26,121.26,125.39,121.26,123.43,576043
2023-10-27,123.47,123.84,120.36,121.17,364010
2023-10-30,121.92,122.32,120.85,122.17,283053
2023-10-31,122.51,122.89,121.83,122.27,422924
2023-11-01,122.11,123.42,121.61,122.93,360459
2023-11-02,123.72,124.29,122.98,123.58,384317
2023-11-03,124.43,125.97,124.43,125.35,278042
2023-11-06,125.27,125.73,124.75,125.19,173549
2023-11-07,124.62,124.99,124.17,124.55,205013
2023-11-08,124.88,125.49,124.41,125.12,175807
2023-11-09,125.69,125.69,124.07,124.39,118583
2023-11-10,124.24,125.79,123.89,125.72,195598
2023-11-13,125.39,125.48,124.37,124.53,183085
2023-11-14,125.95,127.86,125.31,127.85,267352
2023-11-15,127.82,128.80,127.35,127.71,388569
2023-11-16,127.65,128.62,126.84,127.55,216999
2023-11-17,128.56,129.08,127.61,127.93,162670
2023-11-20,127.45,127.65,126.43,127.32,213932
2023-11-21,127.46,128.30,127.20,127.91,160598
2023-11-22,128.45,129.20,127.36,128.57,174832
2023-11-24,128.97,128.97,128.10,128.53,65897
2023-11-27,127.82,128.30,126.85,127.00,367464
2023-11-28,127.00,127.01,125.49,125.61,218011
2023-11-29,125.64,126.40,124.92,125.37,331773
2023-11-30,125.45,127.12,124.81,126.89,300962
2023-12-01,126.42,128.53,126.42,128.10,218283
2023-12-04,127.45,128.88,126.89,128.42,191960
2023-12-05,128.25,128.69,125.88,125.99,178030
2023-12-06,126.39,127.30,125.88,126.37,179521
2023-12-07,126.24,127.11,125.99,126.49,253952
2023-12-08,126.36,127.50,125.62,127.32,265821
2023-12-11,127.26,127.68,126.34,127.57,337976
2023-12-12,127.65,128.10,126.67,127.48,210306
2023-12-13,127.18,128.99,127.18,128.59,424977
2023-12-14,129.08,130.01,126.88,127.40,412923
2023-12-15,127.16,128.58,125.97,125.98,712996
2023-12-18,126.71,127.21,125.88,127.05,240485
2023-12-19,127.71,128.12,126.03,126.23,659100
2023-12-20,126.02,126.94,125.46,125.57,346449
2023-12-21,126.24,126.24,124.85,125.91,421869
2023-12-22,126.40,127.04,126.11,126.27,312238
2023-12-26,126.14,126.87,125.59,125.83,274692
2023-12-27,126.12,126.47,125.03,125.28,283123
2023-12-28,124.98,125.80,124.40,125.20,343618
2023-12-29,125.19,125.36,123.56,123.62,313527
2024-01-02,122.61,124.10,122.29,122.88,313132
2024-01-03,125.15,127.26,123.15,125.36,531783
2024-01-04,125.18,125.92,124.13,124.22,353332
2024-01-05,123.78,124.37,122.99,124.20,422989
2024-01-08,124.07,125.16,122.37,124.35,352405
2024-01-09,123.71,124.64,122.97,124.63,250307
2024-01-10,124.46,125.42,124.23,125.19,279578
2024-01-11,125.38,126.97,124.94,126.84,323136
2024-01-12,127.89,127.97,125.92,126.43,231652
2024-01-16,125.88,126.82,125.51,126.81,257472
2024-01-17,125.94,127.27,125.89,126.69,336850
2024-01-18,127.32,130.00,126.31,129.14,444193
2024-01-19,129.71,131.46,128.53,130.80,417963
2024-01-22,130.90,131.81,130.56,131.19,266190
2024-01-23,131.80,131.85,130.33,131.83,217778
2024-01-24,132.12,132.28,130.54,130.78,294400
2024-01-25,132.03,132.38,130.38,131.25,332302
2024-01-26,131.68,132.59,131.40,131.70,219885
2024-01-29,131.05,132.59,130.49,132.25,187791
2024-01-30,132.03,133.09,131.63,132.25,228363
2024-01-31,132.37,132.77,129.16,129.88,537487
2024-02-01,130.46,131.11,129.61,130.50,298800
2024-02-02,129.96,130.71,128.69,130.10,344843
2024-02-05,129.13,131.45,128.05,130.65,319530
2024-02-06,130.48,131.40,129.30,131.13,369692
2024-02-07,131.41,132.42,129.37,131.80,393013
2024-02-08,131.64,134.84,131.54,132.12,620725
2024-02-09,132.11,139.21,131.50,138.96,650944
2024-02-12,139.16,140.47,137.50,137.61,491253
2024-02-13,136.69,137.33,134.98,135.93,275877
2024-02-14,136.26,137.46,135.17,137.17,334958
2024-02-15,137.17,137.81,134.57,135.04,471417
2024-02-16,135.37,138.00,135.04,137.50,453937
2024-02-20,137.14,140.14,136.95,139.69,373046
2024-02-21,139.08,140.11,138.99,140.00,276273
2024-02-22,140.47,142.42,140.07,141.47,295737
2024-02-23,141.97,142.05,140.60,141.36,190330
2024-02-26,141.50,142.06,140.80,141.92,199254
2024-02-27,141.92,142.18,139.80,140.31,244595
2024-02-28,139.65,141.24,139.33,140.41,189620
2024-02-29,140.63,141.63,139.83,140.46,250582
2024-03-01,139.88,140.78,139.56,140.29,151373
2024-03-04,140.69,142.12,140.56,141.96,260259
2024-03-05,142.27,143.21,141.74,142.52,190208
2024-03-06,142.93,143.64,142.48,143.07,183984
2024-03-07,144.50,145.13,143.84,144.65,250091
2024-03-08,144.71,145.07,142.97,143.09,185255
2024-03-11,142.79,143.38,141.97,142.74,226663
2024-03-12,142.80,142.85,141.48,142.41,242199
2024-03-13,143.00,143.00,140.93,141.16,336764
2024-03-14,141.36,141.62,140.36,140.93,235213
2024-03-15,140.04,142.41,139.74,141.00,599511
2024-03-18,140.93,141.30,138.93,139.26,299728
2024-03-19,138.88,140.31,138.88,139.51,253013
2024-03-20,139.63,140.07,139.14,139.97,219954
2024-03-21,140.31,141.60,139.30,141.14,255837
2024-03-22,142.01,142.45,141.05,141.59,276019
2024-03-25,141.20,144.05,141.17,142.96,316320
2024-03-26,142.83,144.31,142.62,143.20,314251
2024-03-27,143.67,145.15,143.67,144.66,218170
2024-03-28,144.82,145.35,143.65,143.89,247840
2024-04-01,143.79,143.79,142.12,142.29,204383
2024-04-02,141.84,141.84,140.39,140.63,202598
2024-04-03,140.67,141.19,139.87,140.88,258661
2024-04-04,141.83,142.75,140.97,141.75,403641
2024-04-05,141.38,142.76,140.95,141.73,288272
2024-04-08,141.67,142.38,140.39,140.51,312526
2024-04-09,140.42,141.10,139.36,140.31,242589
2024-04-10,138.98,140.22,138.45,139.40,200711
2024-04-11,139.26,140.04,138.45,139.13,265323
2024-04-12,138.17,138.95,135.96,137.20,299234
2024-04-15,138.61,139.81,137.83,138.20,319558
2024-04-16,137.79,139.39,137.36,138.59,281692
2024-04-17,138.88,139.48,138.35,138.40,565361
2024-04-18,138.39,139.44,138.22,139.11,246574
2024-04-19,139.06,139.92,138.77,139.34,276582
2024-04-22,139.55,141.15,139.25,140.32,298792
2024-04-23,139.77,141.16,139.52,140.15,417184
2024-04-24,139.95,140.90,139.64,140.01,559220
2024-04-25,139.84,141.25,138.92,140.18,694402
2024-04-26,142.00,148.50,141.90,143.33,489509
2024-04-29,144.90,148.02,144.37,146.38,676652
2024-04-30,145.74,146.10,144.06,144.38,585121
2024-05-01,144.99,147.21,144.58,145.38,359575
2024-05-02,145.76,146.72,145.29,145.92,356539
2024-05-03,147.11,147.13,144.84,146.81,303324
2024-05-06,147.76,149.08,147.16,149.04,260199
2024-05-07,148.32,150.38,148.32,149.72,392912
2024-05-08,149.72,150.87,149.48,150.79,223510
2024-05-09,151.00,151.73,148.63,149.08,299133
2024-05-10,148.95,149.00,148.09,148.49,186303
2024-05-13,148.53,149.48,146.86,147.87,167458
2024-05-14,148.30,148.31,147.47,147.90,137623
2024-05-15,147.96,148.34,146.77,147.28,211112
2024-05-16,147.37,147.90,146.43,147.54,235527
2024-05-17,147.85,148.16,147.13,147.67,169494
2024-05-20,147.59,148.41,147.04,148.17,163388
2024-05-21,147.94,148.68,147.09,148.59,280401
2024-05-22,148.07,148.83,147.47,148.79,283258
2024-05-23,148.66,148.95,147.56,147.72,171707
2024-05-24,148.48,148.83,147.36,148.09,162320
2024-05-28,147.62,147.78,145.82,146.71,318431
2024-05-29,145.65,146.70,144.51,144.84,229680
2024-05-30,145.13,146.98,145.00,146.14,328097
2024-05-31,146.09,147.83,145.92,147.69,358871
2024-06-03,148.50,148.50,146.03,148.16,264463
2024-06-04,147.65,148.39,146.70,148.19,287867
2024-06-05,147.72,148.20,147.08,147.92,229231
2024-06-06,148.01,148.01,145.40,145.96,197623
2024-06-07,145.77,146.33,145.45,145.55,179120
2024-06-10,144.83,145.81,143.99,145.59,125799
2024-06-11,144.91,145.74,144.35,145.50,147727
2024-06-12,146.24,146.31,144.07,145.83,221319
2024-06-13,145.89,146.53,145.02,145.83,232384
2024-06-14,145.09,145.38,143.68,144.75,141531
2024-06-17,144.87,146.68,144.57,146.33,303775
2024-06-18,146.48,147.69,146.47,146.69,219892
2024-06-20,146.66,147.53,145.67,145.81,199915
2024-06-21,145.87,147.13,145.31,146.85,444074
2024-06-24,147.22,148.23,146.67,146.72,182882
2024-06-25,146.79,146.80,144.50,144.86,194504
2024-06-26,144.25,144.78,142.96,143.71,192427
2024-06-27,143.87,143.88,142.27,143.87,377322
2024-06-28,143.78,144.32,140.09,140.81,435070
2024-07-01,141.38,141.48,138.39,138.54,306423
2024-07-02,138.48,140.50,137.76,140.40,259374
2024-07-03,140.88,141.40,140.57,141.22,143290
2024-07-05,140.99,141.44,139.73,140.90,206970
2024-07-08,141.65,142.50,141.50,141.51,249264
2024-07-09,140.86,141.27,139.75,140.04,238431
2024-07-10,140.75,141.63,140.57,141.29,142003
2024-07-11,141.20,143.30,140.75,142.09,244519
2024-07-12,143.41,145.49,143.41,144.59,263895
2024-07-15,144.76,145.69,143.14,143.43,319875
2024-07-16,143.85,145.30,143.85,144.56,178792
2024-07-17,144.34,145.77,144.34,144.86,242285
2024-07-18,144.61,147.25,144.60,146.28,434172
2024-07-19,146.59,146.59,144.66,145.94,251235
2024-07-22,145.99,147.56,145.25,147.19,235688
2024-07-23,147.87,148.51,145.66,146.04,234547
2024-07-24,146.07,146.63,143.90,144.14,250577
2024-07-25,142.83,144.05,141.22,141.49,558095
2024-07-26,143.13,151.29,142.35,146.66,562787
2024-07-29,146.58,148.35,145.17,147.80,390942
2024-07-30,147.38,147.90,145.41,145.75,411026
2024-07-31,146.50,148.85,145.41,146.98,280587
2024-08-01,146.88,149.54,145.43,147.03,335307
2024-08-02,146.58,147.00,143.75,145.69,213450
2024-08-05,143.43,143.43,139.48,140.68,448532
2024-08-06,141.33,146.09,141.11,144.93,476046
2024-08-07,146.01,147.26,143.47,143.60,353634
2024-08-08,144.46,146.16,144.46,145.56,268614
2024-08-09,145.41,145.41,143.47,143.95,263240
2024-08-12,143.97,144.18,142.77,143.29,221275
2024-08-13,143.51,145.30,143.10,144.37,212115
2024-08-14,144.13,144.81,143.49,143.90,115706
2024-08-15,145.00,147.34,145.00,147.01,277520
2024-08-16,146.11,146.84,145.61,146.72,250647
2024-08-19,146.32,147.73,145.92,146.97,191184
2024-08-20,146.98,148.31,146.98,148.11,387203
2024-08-21,148.17,149.57,147.46,149.33,267296
2024-08-22,149.57,150.40,148.67,148.99,200439
2024-08-23,149.66,150.53,149.44,150.44,221443
2024-08-26,150.68,152.67,150.14,150.16,235517
2024-08-27,150.01,151.54,149.84,151.20,208270
2024-08-28,150.93,151.97,150.93,151.54,248964
2024-08-29,152.55,152.91,151.21,152.28,187083
2024-08-30,152.20,153.44,151.64,153.19,178473
2024-09-03,152.11,152.38,149.73,150.04,362364
2024-09-04,149.60,150.90,149.60,150.73,175836
2024-09-05,151.08,151.76,149.95,150.72,200644
2024-09-06,150.38,153.12,150.38,152.38,319137
2024-09-09,152.57,153.06,151.44,151.91,241501
2024-09-10,151.87,152.79,151.44,151.51,158060
2024-09-11,150.79,150.88,148.63,150.84,178025
2024-09-12,150.89,152.01,149.97,151.96,200432
2024-09-13,152.19,153.01,151.90,152.28,138618
2024-09-16,153.04,153.17,152.07,152.99,182901
2024-09-17,154.00,155.56,151.87,153.03,259948
2024-09-18,153.76,155.49,152.71,153.07,214216
2024-09-19,155.02,158.81,155.02,156.90,412361
2024-09-20,156.31,156.31,154.48,155.91,663306
2024-09-23,156.17,156.91,154.74,155.96,315802
2024-09-24,156.18,157.08,156.03,156.63,246154
2024-09-25,157.30,157.87,155.87,157.14,284138
2024-09-26,157.94,159.06,157.70,158.38,371630
2024-09-27,158.68,161.55,158.26,159.89,354288
2024-09-30,159.29,160.42,158.93,160.19,289783
2024-10-01,160.54,160.54,159.05,159.97,192217
2024-10-02,159.86,160.11,157.96,158.75,186859
2024-10-03,157.99,160.46,156.63,158.94,366992
2024-10-04,159.94,161.47,159.33,160.58,350508
2024-10-07,159.39,159.64,158.01,158.69,223348
2024-10-08,158.28,159.02,157.10,158.67,205920
2024-10-09,158.35,160.05,158.12,159.70,152611
2024-10-10,158.05,159.38,158.05,159.22,168527
2024-10-11,160.94,161.92,160.35,161.55,194364
2024-10-14,164.99,167.76,163.46,167.19,469784
2024-10-15,167.32,169.66,166.49,168.68,397252
2024-10-16,168.70,169.20,165.92,166.04,329983
2024-10-17,166.98,168.32,166.52,167.89,238180
2024-10-18,169.10,169.10,167.78,168.63,171511
2024-10-21,168.47,168.49,166.30,166.33,217915
2024-10-22,165.72,166.37,164.81,165.81,228467
2024-10-23,166.51,167.98,166.16,167.65,318113
2024-10-24,168.32,168.33,166.15,166.55,547349
2024-10-25,168.92,169.84,164.61,168.91,518947
2024-10-28,169.90,171.41,168.76,169.10,349962
2024-10-29,169.03,169.49,167.64,168.70,338097
2024-10-30,168.35,170.20,168.12,169.03,290340
2024-10-31,169.09,170.28,167.86,167.91,329868
2024-11-01,168.10,170.99,167.62,169.41,316280
2024-11-04,169.63,170.57,168.18,168.26,191750
2024-11-05,167.74,170.36,167.74,170.31,206206
2024-11-06,175.15,175.15,172.14,173.16,264104
2024-11-07,174.20,175.46,173.54,174.71,412332
2024-11-08,174.70,177.84,174.49,175.76,309183
2024-11-11,176.32,178.03,175.90,176.15,189082
2024-11-12,176.65,177.24,174.95,175.70,179781
2024-11-13,175.50,176.39,175.04,175.50,168391
2024-11-14,175.15,175.79,173.91,174.10,198168
2024-11-15,172.97,173.76,166.17,166.49,620523
2024-11-18,166.39,167.82,164.33,166.69,384407
2024-11-19,166.42,167.67,166.19,166.90,287603
2024-11-20,167.00,168.94,165.65,168.73,221802
2024-11-21,168.69,170.23,167.74,169.88,205056
2024-11-22,170.18,172.07,170.18,171.51,241648
2024-11-25,172.05,174.02,171.74,172.50,270111
2024-11-26,172.86,172.86,171.16,172.04,140337
2024-11-27,172.67,173.88,171.52,171.73,167190
2024-11-29,172.59,173.49,172.09,172.96,117313
2024-12-02,172.98,173.11,170.84,172.76,170859
2024-12-03,173.45,173.45,171.09,172.40,160082
2024-12-04,171.89,172.89,171.03,172.59,173405
2024-12-05,172.01,172.44,170.53,171.10,244993
2024-12-06,171.60,172.65,170.85,171.15,209219
2024-12-09,171.56,173.47,170.23,170.79,301698
2024-12-10,170.72,171.37,168.19,170.91,287044
2024-12-11,171.88,174.10,171.75,172.31,418597
2024-12-12,171.67,172.60,170.78,171.64,178316
2024-12-13,170.91,171.00,169.82,170.20,153215
2024-12-16,170.14,170.93,167.59,167.63,236090
2024-12-17,166.90,166.91,162.84,163.09,511945
2024-12-18,163.69,164.42,157.91,158.21,468597
2024-12-19,158.51,161.57,158.23,158.87,404719
2024-12-20,158.72,159.78,157.47,158.18,730243
2024-12-23,157.17,158.90,156.96,158.52,194939
2024-12-24,158.78,159.42,157.92,159.35,100464
2024-12-26,158.42,159.63,158.42,158.85,164622
2024-12-27,157.82,159.58,157.61,158.15,145043
2024-12-30,157.00,157.49,155.00,156.73,221703
2024-12-31,157.28,158.25,156.18,157.10,317053
2025-01-02,157.65,158.11,153.45,154.16,239385
2025-01-03,154.04,155.72,152.87,155.50,250660
2025-01-06,154.00,154.64,151.44,152.92,369029
2025-01-07,155.92,156.06,152.60,153.43,361162
2025-01-08,152.89,154.26,152.09,154.15,228637
2025-01-10,152.72,154.30,152.58,153.45,350837
2025-01-13,152.93,154.70,152.93,153.89,349285
2025-01-14,154.81,155.45,153.48,154.61,196911
2025-01-15,156.12,156.92,154.17,155.56,206137
2025-01-16,155.89,157.16,155.31,156.41,346317
2025-01-17,156.97,157.95,155.68,156.09,231872
2025-01-21,156.72,160.26,156.72,159.83,270874
2025-01-22,159.34,160.75,158.34,159.07,279989
2025-01-23,158.46,159.81,157.72,159.62,149812
2025-01-24,159.65,160.47,157.22,158.30,329584
2025-01-27,158.25,158.92,156.65,158.46,317046
2025-01-28,157.57,160.35,157.57,158.42,204250
2025-01-29,158.78,158.82,156.62,157.11,265785
2025-01-30,157.82,158.68,156.58,158.13,274219
2025-01-31,157.90,159.39,156.76,157.15,834143
2025-02-03,154.58,156.75,154.14,155.98,364565
2025-02-04,156.09,158.46,156.09,157.70,302366
2025-02-05,158.28,159.66,157.78,158.32,262636
2025-02-06,159.84,159.84,155.37,156.45,446565
2025-02-07,157.62,157.90,142.04,143.18,1221538
2025-02-10,144.26,144.60,140.90,143.28,621928
2025-02-11,142.27,143.07,140.26,142.29,377346
2025-02-12,140.97,143.49,139.93,141.70,423520
2025-02-13,142.75,143.78,141.46,142.77,665887
2025-02-14,143.69,145.31,142.72,144.79,512842
2025-02-18,144.79,147.29,143.90,146.90,489600
2025-02-19,146.14,147.49,145.61,147.04,331002
2025-02-20,146.97,147.41,145.92,146.68,283106
2025-02-21,147.03,147.39,145.20,146.34,451851
2025-02-24,146.18,147.29,144.36,145.61,353284
2025-02-25,145.88,148.33,145.72,147.71,336735
2025-02-26,146.65,149.18,146.62,146.64,735632
2025-02-27,146.23,147.18,145.36,145.63,262813
2025-02-28,146.16,146.95,144.63,146.75,348660
2025-03-03,146.97,148.84,145.69,146.59,394119
2025-03-04,145.54,147.95,145.14,145.94,490119
2025-03-05,146.05,148.85,146.05,148.44,445078
2025-03-06,147.56,151.50,147.06,151.15,471738
2025-03-07,150.51,153.36,149.18,152.78,480214
2025-03-10,152.07,154.00,150.24,150.57,391055
2025-03-11,150.34,150.56,147.27,147.89,304021
2025-03-12,148.24,148.24,145.56,146.03,299729
2025-03-13,146.41,147.20,143.76,144.76,238382
2025-03-14,145.23,146.89,144.54,146.66,223585
2025-03-17,146.51,148.00,145.86,147.84,225203
2025-03-18,147.39,147.53,145.78,146.30,219932
2025-03-19,146.34,147.46,145.47,146.98,279662
2025-03-20,146.13,147.42,143.72,145.20,332777
2025-03-21,144.00,145.46,142.36,144.82,601908
2025-03-24,145.75,148.18,144.91,147.99,463787
2025-03-25,148.49,149.23,145.93,147.21,325226
2025-03-26,147.05,148.70,146.30,148.56,630399
2025-03-27,148.28,149.89,147.03,149.35,312676
2025-03-28,149.29,150.00,145.75,146.93,239805
2025-03-31,146.58,149.09,146.09,148.38,372528
2025-04-01,148.88,150.03,147.38,149.10,239988
2025-04-02,148.00,151.13,148.00,150.53,247555
2025-04-03,146.76,150.05,146.46,148.67,352876
2025-04-04,145.22,147.96,140.04,140.18,531626
2025-04-07,136.34,142.12,130.85,134.65,629909
2025-04-08,137.38,139.31,131.28,133.66,473826
2025-04-09,133.18,144.42,131.32,143.75,491857
2025-04-10,140.00,143.37,137.57,140.76,308997
2025-04-11,140.87,144.71,139.74,144.11,203037
2025-04-14,145.80,146.40,143.79,145.79,249303
2025-04-15,146.10,146.54,143.77,143.94,250675
2025-04-16,144.06,145.82,142.57,145.00,307681
2025-04-17,145.40,145.76,140.71,143.83,390605
2025-04-21,143.30,144.05,141.10,142.58,291626
2025-04-22,144.50,146.82,143.59,146.02,217767
2025-04-23,147.87,149.32,147.22,148.05,536977
2025-04-24,147.93,152.00,145.46,151.46,424550
2025-04-25,150.85,153.00,147.57,149.06,220485
2025-04-28,149.80,151.03,148.28,149.70,235226
2025-04-29,149.76,151.98,149.01,150.30,359943
2025-04-30,149.07,149.99,147.21,149.95,556176
2025-05-01,148.45,150.53,146.96,148.28,445325
2025-05-02,152.99,153.00,147.78,152.00,431607
2025-05-05,151.43,153.22,150.88,151.48,267601
2025-05-06,150.25,152.04,149.41,150.92,311959
2025-05-07,151.88,153.15,150.62,151.39,318398
2025-05-08,151.79,154.57,151.24,153.36,302474
2025-05-09,153.91,154.30,152.94,153.32,231636
2025-05-12,155.79,156.59,153.70,155.52,352482
2025-05-13,156.31,156.31,153.20,153.64,339421
2025-05-14,153.62,153.62,150.97,152.48,350071
2025-05-15,152.35,155.48,152.35,154.95,278108
2025-05-16,155.18,157.15,154.59,157.01,278607
2025-05-19,156.36,158.34,156.31,158.08,185436
2025-05-20,160.26,160.26,157.91,158.53,388100
2025-05-21,156.86,157.65,155.83,156.45,319757
2025-05-22,156.36,157.26,155.56,156.65,278860
2025-05-23,155.12,156.18,154.25,155.94,260545
2025-05-27,157.03,158.44,156.69,158.16,352755
2025-05-28,158.16,158.84,157.25,157.40,364440
2025-05-29,157.83,158.67,156.82,158.33,232087
2025-05-30,158.24,158.78,156.54,158.40,335104
2025-06-02,157.54,159.07,155.25,156.91,349586
2025-06-03,156.18,157.44,156.00,156.26,397776
2025-06-04,156.49,156.52,150.29,150.41,831919
2025-06-05,151.58,153.34,149.05,152.49,482377
2025-06-06,154.37,154.47,152.21,153.31,264715
2025-06-09,152.71,153.18,151.36,151.60,388353
2025-06-10,152.16,153.00,150.86,152.53,323524
2025-06-11,153.00,153.59,151.59,151.92,380818
2025-06-12,151.41,154.62,151.41,154.35,337231
2025-06-13,153.00,153.72,150.73,151.16,361176
2025-06-16,151.24,152.90,151.12,151.69,346150
2025-06-17,150.66,151.26,149.12,149.45,379733
2025-06-18,149.12,150.73,149.12,149.70,383173
2025-06-20,150.29,150.77,148.99,150.30,570491
2025-06-23,149.49,153.94,149.49,153.79,356518
2025-06-24,154.57,154.57,153.18,153.87,246573
2025-06-25,153.86,154.53,152.77,153.93,264690
2025-06-26,154.53,155.58,153.12,154.48,658225
2025-06-27,154.66,156.11,154.23,155.82,643145
2025-06-30,156.03,156.50,154.61,156.43,315502
2025-07-01,156.43,159.80,155.96,159.01,338399
2025-07-02,159.02,160.53,158.65,160.32,293509
2025-07-03,160.60,161.36,159.81,161.04,235097
2025-07-07,160.95,162.37,160.55,160.96,313925
2025-07-08,160.90,162.58,159.85,160.05,342674
2025-07-09,159.93,160.01,158.10,159.73,252796
2025-07-10,159.19,160.36,158.33,158.33,361583
2025-07-11,158.56,158.56,156.63,157.90,292046
2025-07-14,157.14,158.94,156.69,157.56,276595
2025-07-15,157.74,158.00,154.07,154.16,254203
2025-07-16,153.92,155.61,153.55,154.98,261877
2025-07-17,154.74,156.41,154.51,156.03,397671
2025-07-18,156.85,157.21,154.92,156.38,243092
2025-07-21,156.42,156.66,155.24,155.45,205939
2025-07-22,156.11,159.36,155.22,159.17,449890
2025-07-23,160.07,161.85,159.14,161.66,450549
2025-07-24,160.96,164.28,159.79,161.82,431871
2025-07-25,162.05,163.09,160.78,160.99,296252
2025-07-28,161.20,161.98,158.16,158.70,308523
2025-07-29,159.05,159.60,157.22,158.82,388206
2025-07-30,158.80,158.93,154.92,156.79,580730
2025-07-31,155.78,157.35,155.18,157.14,679676
2025-08-01,156.97,158.12,141.09,141.35,1012362
2025-08-04,143.12,143.12,137.08,139.13,838962
2025-08-05,139.34,141.07,137.69,140.22,540781
2025-08-06,140.31,140.76,137.55,138.54,515319
2025-08-07,139.80,141.49,138.91,140.49,564047
2025-08-08,140.69,142.05,140.58,140.75,428743
2025-08-11,141.33,141.62,139.20,139.87,349458
2025-08-12,140.22,141.09,139.23,139.48,286080
2025-08-13,139.69,141.44,139.25,141.43,729895
2025-08-14,140.19,140.19,136.44,138.34,875813
2025-08-15,138.36,138.95,137.87,138.72,770519
2025-08-18,138.89,139.57,137.35,137.89,529518
2025-08-19,138.27,140.52,138.27,139.59,333078
2025-08-20,139.91,141.25,139.26,141.18,519196
2025-08-21,140.63,141.90,140.24,140.64,270413
2025-08-22,141.26,143.33,141.19,141.43,356524
2025-08-25,140.97,141.61,138.96,139.56,245765
2025-08-26,139.07,140.16,138.01,139.71,442886
2025-08-27,139.09,140.57,139.03,139.44,729133
2025-08-28,140.17,140.17,137.40,138.89,320802
2025-08-29,139.17,139.87,138.34,139.27,370750
2025-09-02,137.42,138.53,136.17,136.41,310614
2025-09-03,136.08,136.18,134.44,135.22,382389
2025-09-04,136.34,138.48,135.04,138.46,401811
2025-09-05,139.02,140.82,137.62,138.62,440827
2025-09-08,138.59,140.00,137.68,138.30,616104
2025-09-09,138.26,139.48,135.10,137.05,637075
2025-09-10,136.13,137.46,134.85,136.25,685117
2025-09-11,136.75,138.28,135.87,137.10,477514
2025-09-12,136.62,137.05,135.22,135.23,261349
2025-09-15,135.97,136.17,134.63,134.85,298041
2025-09-16,134.79,135.42,134.10,135.21,474820
2025-09-17,135.42,137.07,134.19,134.65,377375
2025-09-18,134.90,135.50,134.07,134.50,254839
2025-09-19,134.66,135.10,133.34,134.44,877176
2025-09-22,134.12,134.94,132.67,132.72,402147
2025-09-23,133.01,133.94,131.97,132.02,319736
2025-09-24,132.00,133.31,131.34,131.50,353330
2025-09-25,131.50,132.52,130.27,130.82,388660
2025-09-26,131.33,132.43,130.96,132.29,274395
2025-09-29,132.40,132.68,131.36,132.27,540602
2025-09-30,131.71,133.76,131.71,133.66,310381
2025-10-01,133.33,134.36,132.31,134.14,310078
2025-10-02,133.66,134.39,132.96,133.18,398515
2025-10-03,132.47,133.58,132.43,133.22,402033
2025-10-06,132.89,133.20,131.41,131.88,447132
2025-10-07,132.11,132.51,129.81,130.59,438789
2025-10-08,131.18,132.01,130.26,131.61,361328
2025-10-09,131.70,132.84,130.20,130.61,554222
2025-10-10,130.94,132.01,129.89,130.93,426005
2025-10-13,130.99,132.35,130.16,130.22,311422
2025-10-14,130.04,131.06,129.04,129.80,337442
2025-10-15,129.80,130.39,127.86,128.10,438271
2025-10-16,128.44,129.50,127.85,129.16,352687
2025-10-17,129.16,130.10,128.85,129.34,339743
2025-10-20,129.61,130.09,128.02,130.00,240513
2025-10-21,130.61,131.77,129.12,130.57,311561
2025-10-22,130.65,132.11,129.98,130.06,357471
2025-10-23,129.74,131.53,129.66,130.77,378634
2025-10-24,130.75,130.89,128.54,128.88,489311
2025-10-27,129.14,129.90,128.45,128.78,521664
2025-10-28,128.75,129.11,127.47,128.10,413500
2025-10-29,127.28,127.50,123.42,124.31,651086
2025-10-30,124.04,125.52,123.04,124.36,702671
2025-10-31,115.29,118.10,103.23,116.01,2758273
2025-11-03,116.09,116.09,108.29,113.12,1661017
2025-11-04,114.36,116.00,112.53,114.18,1029138
2025-11-05,114.33,116.03,112.77,115.57,896945
2025-11-06,115.02,116.95,113.80,116.15,880317
2025-11-07,116.23,116.92,114.69,116.22,697209
2025-11-10,115.99,116.77,114.00,116.38,514004
2025-11-11,116.96,119.51,116.96,118.27,484777
2025-11-12,118.34,119.67,117.91,118.16,547506
2025-11-13,118.30,121.88,118.30,120.20,679444
2025-11-14,119.77,120.69,118.39,118.61,521175
2025-11-17,118.49,119.48,117.56,119.34,820246
2025-11-18,119.66,120.11,118.06,119.31,817365
2025-11-19,119.51,119.51,117.71,118.00,598851
2025-11-20,118.00,119.61,117.36,118.58,507353
2025-11-21,118.13,122.24,118.13,121.52,509095
2025-11-24,120.85,122.40,120.44,121.47,740035
2025-11-25,122.41,124.08,122.41,123.44,543643
2025-11-26,123.02,124.52,123.02,123.81,538032
2025-11-28,123.63,126.08,123.63,124.75,315680
2025-12-01,124.88,124.96,123.03,123.28,536838
2025-12-02,123.77,123.86,120.80,121.60,325372
2025-12-03,121.45,124.25,121.41,122.06,543097
2025-12-04,122.20,124.08,121.93,122.02,707965
2025-12-05,121.99,123.51,120.62,121.91,537041
2025-12-08,120.92,122.10,119.30,120.07,496615
2025-12-09,119.60,119.84,115.36,115.72,640262
2025-12-10,116.17,117.80,115.13,117.17,734713
2025-12-11,117.96,118.67,117.16,118.01,389717
2025-12-12,118.52,121.64,117.65,121.47,656392
2025-12-15,121.48,122.46,120.48,122.33,588586
2025-12-16,122.67,123.85,119.52,122.83,644802
2025-12-17,122.11,124.60,120.08,123.63,567293
2025-12-18,123.67,124.12,122.03,122.62,457122
2025-12-19,123.34,124.33,121.26,121.39,1300395
2025-12-22,121.39,123.70,121.07,122.74,527751
2025-12-23,122.87,123.03,121.32,122.19,311665
2025-12-24,122.53,123.17,121.76,122.75,198018
2025-12-26,122.37,123.48,121.72,123.25,306003
2025-12-29,123.29,124.31,122.32,123.21,400189
2025-12-30,122.80,124.30,122.42,122.74,289781
2025-12-31,121.52,123.33,121.35,121.96,314335
2026-01-02,121.74,123.00,120.78,122.54,295067
2026-01-05,121.76,124.58,121.75,123.00,435656
2026-01-06,122.22,122.85,120.11,120.56,777184
2026-01-07,120.67,121.95,117.61,120.44,478485
2026-01-08,119.92,123.37,119.52,122.44,330023
2026-01-09,122.08,124.97,121.46,123.85,429084
2026-01-12,124.00,125.30,122.98,125.13,477342
2026-01-13,125.05,125.44,122.54,123.50,351904
2026-01-14,124.11,127.16,124.11,126.85,611741
2026-01-15,127.14,127.22,124.52,125.11,381006
2026-01-16,124.00,125.20,123.24,124.71,363405
2026-01-20,124.90,125.53,123.44,123.82,275138
2026-01-21,124.31,125.62,123.90,125.01,421092
2026-01-22,125.05,126.41,124.06,124.47,369685
2026-01-23,124.34,126.28,123.86,126.00,429452
2026-01-26,126.42,126.98,125.10,126.35,315413
2026-01-27,124.95,126.30,124.17,124.74,303123
2026-01-28,124.20,125.06,123.25,123.70,347815
2026-01-29,124.29,125.28,122.58,123.85,386029
2026-01-30,122.91,125.01,122.66,124.95,512660
2026-02-02,124.20,125.91,124.20,124.83,489079
2026-02-03,123.91,127.93,123.69,124.63,658715
2026-02-04,125.71,130.42,124.70,129.23,589460
2026-02-05,127.67,129.08,121.96,123.98,2144182
2026-02-06,127.53,135.99,127.53,134.31,1045699
2026-02-09,133.58,139.57,133.25,138.47,1043367
2026-02-10,137.81,140.93,137.81,140.17,622080
2026-02-11,139.03,140.55,138.59,140.01,584271
2026-02-12,140.16,142.00,139.38,140.51,572705
2026-02-13,140.51,142.93,140.41,142.58,471898
2026-02-17,139.26,143.62,139.26,141.65,614714
2026-02-18,141.47,143.11,140.84,141.72,582018
2026-02-19,141.65,143.32,141.03,143.16,525547
2026-02-20,143.12,145.14,142.00,145.05,664455
2026-02-23,143.49,146.24,143.13,145.72,513503
2026-02-24,146.07,146.91,143.85,144.14,429802
2026-02-25,142.41,143.66,140.43,142.68,348947
2026-02-26,143.52,143.92,141.00,141.79,331291
2026-02-27,141.53,144.01,141.00,143.71,344632
2026-03-02,143.00,143.35,141.62,142.67,335035
2026-03-03,140.64,141.31,136.92,139.76,347292
2026-03-04,139.34,139.50,136.00,137.04,388995
2026-03-05,136.00,136.34,134.41,134.73,452280
2026-03-06,134.00,134.00,131.00,132.08,398478
2026-03-09,130.97,133.98,127.53,133.75,545650
2026-03-10,133.35,134.13,131.40,132.13,503067
2026-03-11,131.80,133.28,130.04,132.02,563849
2026-03-12,131.27,132.79,128.64,128.86,620574
2026-03-13,130.15,130.15,127.05,128.65,660585
2026-03-16,129.48,131.41,126.00,129.05,370688
2026-03-17,129.97,131.02,128.24,129.50,276759
2026-03-18,124.38,126.58,121.42,124.22,910517
2026-03-19,123.01,124.82,121.45,123.97,518465
2026-03-20,124.26,124.26,120.31,121.06,1481541
2026-03-23,123.51,126.34,122.98,124.14,455211
2026-03-24,123.16,125.22,122.87,124.15,405029
2026-03-25,125.44,126.57,123.70,125.82,337183
2026-03-26,125.22,127.33,124.11,124.69,442053
2026-03-27,123.94,124.21,121.76,121.99,381351
2026-03-30,122.56,123.94,121.10,123.36,562003
2026-03-31,124.39,126.96,123.59,126.02,557916
2026-04-01,127.34,128.64,126.33,126.75,380192
2026-04-02,125.14,127.08,124.25,126.01,297467
2026-04-06,124.59,126.19,124.59,126.01,461123
2026-04-07,125.32,127.17,124.80,125.61,376851
2026-04-08,131.38,132.66,128.15,132.02,645206
2026-04-09,131.22,132.44,127.33,131.40,424126
2026-04-10,132.25,132.70,130.85,131.50,407429
2026-04-13,130.80,132.41,127.58,132.11,396324
2026-04-14,131.22,132.72,130.97,131.01,315555
2026-04-15,130.81,131.03,128.60,129.65,407128
2026-04-16,126.90,130.33,126.90,128.29,393826
2026-04-17,129.65,132.29,129.65,130.63,401082
2026-04-20,130.57,131.99,129.66,130.92,403610
2026-04-21,130.70,132.25,126.69,126.69,310246
2026-04-22,127.28,127.28,122.96,124.55,458930
2026-04-23,125.38,127.44,124.44,124.94,440800
2026-04-24,124.41,124.41,122.57,124.08,440909
2026-04-27,124.04,126.23,123.54,124.73,359687
2026-04-28,126.12,126.65,123.72,125.77,354328
2026-04-29,125.14,125.90,122.79,122.90,448420
2026-04-30,123.43,126.08,121.88,123.68,764785
2026-05-01,127.21,128.48,117.90,119.02,989355
2026-05-04,118.68,121.75,117.45,120.60,739586
2026-05-05,120.90,123.71,120.82,122.03,628565
2026-05-06,123.18,126.39,121.67,122.63,917000
2026-05-07,122.94,126.47,122.57,125.11,749729
2026-05-08,125.23,125.86,120.39,120.99,794887
2026-05-11,121.22,121.22,119.44,119.96,706134
2026-05-12,120.45,120.86,117.14,118.05,696844
2026-05-13,118.00,118.75,116.42,117.88,679534
2026-05-14,118.73,120.16,117.04,117.99,531018
2026-05-15,117.91,117.92,114.47,114.67,446965
2026-05-18,115.60,117.32,115.17,115.81,433079
2026-05-19,115.89,116.04,112.44,113.61,575789
2026-05-20,114.07,115.45,111.55,115.26,562595
2026-05-21,116.50,116.50,112.77,115.51,345580
2026-05-22,115.80,116.80,114.71,116.23,405783
2026-05-26,116.20,116.97,115.37,116.38,344534
2026-05-27,116.94,118.11,114.73,115.30,464069
2026-05-28,114.81,116.34,113.35,115.99,510065
2026-05-29,115.06,117.26,113.75,115.85,559601
2026-06-01,114.69,115.13,112.03,112.38,706851
2026-06-02,111.95,113.05,111.24,112.18,452388
2026-06-03,111.69,114.02,111.69,112.53,372570
2026-06-04,114.95,115.75,111.54,112.55,337581
2026-06-05,113.09,114.59,111.98,113.36,466273
2026-06-08,112.26,112.64,110.95,111.94,422154
2026-06-09,113.28,116.15,112.67,115.90,444354
2026-06-10,116.15,116.55,113.37,114.67,496794
2026-06-11,115.11,117.01,114.25,116.58,395181
2026-06-12,117.90,118.47,116.38,117.72,342606
2026-06-15,118.70,120.74,117.56,118.08,576140
2026-06-16,118.50,121.05,113.77,120.65,474725
2026-06-17,121.62,122.35,119.46,119.99,680549
2026-06-18,120.46,122.55,119.11,120.32,750611
2026-06-22,119.56,121.01,118.88,120.00,468368
2026-06-23,120.36,122.58,119.08,120.61,514116
2026-06-24,121.98,125.05,121.77,124.28,404908
2026-06-25,125.73,128.14,124.90,126.43,363518
2026-06-26,125.94,127.12,124.75,125.98,727448
2026-06-29,125.61,126.05,123.92,125.29,446637
2026-06-30,124.60,126.31,123.94,125.20,329270
2026-07-01,125.12,126.84,124.10,125.25,405572
2026-07-02,126.27,128.23,125.41,126.98,468388
2026-07-06,126.43,127.05,124.18,126.01,431430
2026-07-07,126.63,128.72,126.16,127.69,392721
2026-07-08,126.45,126.71,123.04,124.21,537700
2026-07-09,124.46,125.48,123.78,124.45,302085
2026-07-10,125.00,126.98,124.37,125.53,385176
2026-07-13,126.09,127.17,124.39,124.89,391605
2026-07-14,128.42,129.41,127.96,128.28,739896
2026-07-15,129.71,130.76,128.45,129.11,466846
2026-07-16,130.02,135.08,130.02,134.75,579278
2026-07-17,135.83,136.65,130.71,132.61,530824
2026-07-20,132.38,132.38,129.75,129.91,422950
2026-07-21,130.53,131.06,127.92,128.91,328837
2026-07-22,129.81,130.48,128.48,129.17,309907
2026-07-23,128.85,129.82,128.17,129.00,382933
2026-07-24,129.59,132.73,129.59,132.36,335921
2026-07-27,133.19,134.08,132.66,133.37,411234
2026-07-28,135.38,138.03,134.83,137.81,593147
2026-07-29,136.00,136.60,134.55,136.23,580058
2026-07-30,136.40,136.40,133.10,133.87,627021
2026-07-31,137.46,139.57,132.17,133.96,886505
2026-08-03,137.23,138.46,134.53,136.77,642497
2026-08-04,137.87,137.87,135.34,136.18,511877
2026-08-05,136.87,136.88,134.87,136.75,454847
2026-08-06,138.62,138.69,134.67,135.78,544975
2026-08-07,135.06,137.68,134.71,135.42,686293
2026-08-10,134.39,134.52,132.93,133.68,446749
2026-08-11,132.80,135.05,132.80,134.75,343680
2026-08-12,133.51,134.47,132.27,133.15,315068
2026-08-13,134.44,134.44,132.09,132.57,490791
2026-08-14,132.09,132.75,129.56,132.10,381603
2026-08-17,133.16,133.16,130.22,131.74,374534
2026-08-18,132.75,133.47,131.22,131.73,500148
2026-08-19,133.05,134.38,132.28,132.93,390415
2026-08-20,131.45,133.83,130.90,132.96,420886
2026-08-21,134.04,135.12,133.10,134.80,400498
2026-08-24,135.36,136.34,134.39,134.75,282301
2026-08-25,135.59,135.59,133.22,134.72,280916
2026-08-26,135.00,136.64,134.44,135.24,281378
2026-08-27,133.78,134.69,132.26,132.86,295694
2026-08-28,133.55,133.66,132.04,132.99,325434
2026-08-31,132.21,132.44,130.83,131.62,389239
2026-09-01,131.65,132.07,130.78,130.92,418155
2026-09-02,131.27,132.26,129.69,130.33,472482
2026-09-03,130.65,130.65,126.99,128.31,339990
2026-09-04,127.53,128.47,126.53,127.41,323986
2026-09-08,126.20,126.99,124.25,124.34,362194
2026-09-09,123.97,123.97,121.09,122.11,383033
2026-09-10,122.05,123.12,120.74,123.05,435090
2026-09-11,124.85,125.59,123.06,124.84,491927
2026-09-14,125.28,126.21,124.00,124.91,423158
2026-09-15,124.85,124.86,123.41,124.68,474729
